#r [R_J]	sigma [M_J/R_J^2]	T [K]
1.0	3.899137870915069e-07	1000.4520136099998
1.00624021847	3.9322965478209516e-07	1000.8846266039409
1.01251937726	3.965740166347066e-07	1001.3205854634169
1.01883771938	3.9994711999559655e-07	1001.7598943670772
1.02519548934	4.0334921437885293e-07	1002.2025575071222
1.03159293316	4.0678055148556527e-07	1002.6485790893291
1.03803029844	4.102413852231685e-07	1003.0979633330759
1.04450783428	4.1373197172495527e-07	1003.5507144713663
1.05102579136	4.172525693697641e-07	1004.006836750852
1.05758442191	4.2080343880184304e-07	1004.4663344318592
1.06418397975	4.243848429508904e-07	1004.9292117884111
1.07082472028	4.2799704705227247e-07	1005.3954731082549
1.07750690047	4.316403186674258e-07	1005.8651226928844
1.08423077894	4.353149277044371e-07	1006.3381648575644
1.09099661587	4.390211464388089e-07	1006.8146039313565
1.0978046731	4.4275924953441003e-07	1007.2944442571445
1.1046552141	4.4652951406461337e-07	1007.7776901916571
1.11154850396	4.5033221953362026e-07	1008.2643461054938
1.11848480947	4.541676478979792e-07	1008.7544163831509
1.12546439903	4.5803608358829246e-07	1009.2479054230446
1.13248754276	4.619378135311187e-07	1009.7448176375375
1.13955451244	4.6587312717107005e-07	1010.2451574529623
1.14666558156	4.6984231649310776e-07	1010.7489293096494
1.1538210253	4.738456760450336e-07	1011.2561376619497
1.16102112057	4.778835029601873e-07	1011.7667869782607
1.16826614601	4.819560969803417e-07	1012.2808817410519
1.17555638199	4.86063760478805e-07	1012.7984264468914
1.18289211064	4.902067984837279e-07	1013.3194256064702
1.19027361583	4.943855187016206e-07	1013.8438837446271
1.19770118323	4.986002315410761e-07	1014.371805400375
1.20517510028	5.028512501367112e-07	1014.9031951269287
1.2126956562	5.071388903733156e-07	1015.4380574917268
1.22026314203	5.114634709102203e-07	1015.9763970764598
1.22787785063	5.158253132058811e-07	1016.5182184770969
1.23554007667	5.202247415426852e-07	1017.0635263039096
1.24325011667	5.246620830519734e-07	1017.6123251814988
1.25100826901	5.291376677392938e-07	1018.1646197488212
1.25881483392	5.336518285098747e-07	1018.7204146592161
1.26667011349	5.382049011943268e-07	1019.2797145804293
1.27457441173	5.427972245745767e-07	1019.8425241946416
1.28252803451	5.47429140410032e-07	1020.4088481984932
1.29053128964	5.521009934639752e-07	1020.9786913031136
1.29858448683	5.568131315302015e-07	1021.5520582341437
1.30668793773	5.615659054598888e-07	1022.128953731765
1.31484195593	5.663596691887102e-07	1022.709382550725
1.32304685699	5.711947797641876e-07	1023.2933494603662
1.33130295842	5.760715973732919e-07	1023.8808592446494
1.33961057973	5.80990485370286e-07	1024.4719167021824
1.34797004241	5.859518103048223e-07	1025.066526646248
1.35638166997	5.909559419502864e-07	1025.664693904828
1.36484578791	5.96003253332397e-07	1026.266423320633
1.37336272381	6.010941207580606e-07	1026.8717197511273
1.38193280724	6.062289238444844e-07	1027.480588068559
1.39055636987	6.114080455485478e-07	1028.093033159983
1.39923374541	6.166318721964418e-07	1028.709059927292
1.40796526967	6.21900793513567e-07	1029.3286732872411
1.41675128055	6.272152026547035e-07	1029.9518781714792
1.42559211806	6.325754962344483e-07	1030.5786795265706
1.43448812432	6.379820743579271e-07	1031.209082314028
1.44343964361	6.434353406517765e-07	1031.843091510336
1.45244702233	6.489357022954114e-07	1032.4807121069834
1.46151060907	6.54483570052563e-07	1033.1219491104862
1.47063075456	6.600793583031055e-07	1033.7668075424167
1.47980781176	6.657234850751644e-07	1034.4152924394348
1.48904213579	6.714163720775143e-07	1035.067408853311
1.49833408403	6.771584447322624e-07	1035.7231618509581
1.50768401606	6.829501322078314e-07	1036.3825565144568
1.5170922937	6.887918674522319e-07	1037.0455979410865
1.52655928105	6.946840872266339e-07	1037.7122912433506
1.53608534447	7.006272321392409e-07	1038.3826415490073
1.54567085261	7.066217466794651e-07	1039.0566540010955
1.55531617641	7.126680792524075e-07	1039.7343337579669
1.56502168914	7.187666822136516e-07	1040.4156859933107
1.57478776639	7.249180119043639e-07	1041.1007158961836
1.58461478609	7.3112252868671e-07	1041.7894286710402
1.59450312854	7.373806969795885e-07	1042.481829537758
1.60445317642	7.436929852946849e-07	1043.177923731671
1.61446531476	7.481493653004231e-07	1043.8777165035933
1.62453993104	7.526342054492691e-07	1044.581213119853
1.63467741512	7.571476976860474e-07	1045.288418862317
1.64487815931	7.616900353055647e-07	1045.9993390284235
1.65514255838	7.662614129623883e-07	1046.7139789312077
1.66547100955	7.708620266807011e-07	1047.432343899336
1.6758639125	7.754920738642198e-07	1048.154439277129
1.68632166944	7.801517533062046e-07	1048.8802704245966
1.69684468506	7.848412651995249e-07	1049.609842717463
1.70743336661	7.875052553647049e-07	1050.3431615472
1.71808812384	7.901794567924277e-07	1051.0802323210537
1.72880936908	7.928639119298408e-07	1051.821060462075
1.73959751723	7.955586634088265e-07	1052.5656514091506
1.75045298579	7.982637540468191e-07	1053.3140106170313
1.76137619484	8.009792268476378e-07	1054.066143556362
1.7723675671	8.037051250023119e-07	1054.8220557137115
1.78342752793	8.06441491889917e-07	1055.581752591605
1.79455650533	8.091883710784161e-07	1056.3452397085503
1.80575492997	8.119458063254953e-07	1057.1125225990704
1.81702323524	8.147138415794162e-07	1057.883606813733
1.82836185719	8.174925209798589e-07	1058.6584979191825
1.83977123462	8.202818888587789e-07	1059.4372014981668
1.85125180906	8.230819897412658e-07	1060.219723149571
1.86280402479	8.258928683463983e-07	1061.0060684884468
1.87442832887	8.287145695881164e-07	1061.7962431460433
1.88612517114	8.315471385760833e-07	1062.5902527698368
1.89789500427	8.343906206165643e-07	1063.3881030235625
1.90973828373	8.372450612132978e-07	1064.189799587246
1.92165546784	8.401105060683784e-07	1064.9953481572325
1.93364701778	8.429870010831443e-07	1065.8047544462186
1.94571339761	8.458745923590585e-07	1066.618024183283
1.95785507429	8.4877332619861e-07	1067.43516311392
1.97007251769	8.516832491062033e-07	1068.2561770000661
1.9823662006	8.546044077890612e-07	1069.0810716201358
1.99473659878	8.575368491581328e-07	1069.9098527690494
2.00718419094	8.604806203289959e-07	1070.7425262582683
2.0197094588	8.634357686227769e-07	1071.5790979158228
2.03231288707	8.664023415670598e-07	1072.4195735863455
2.04499496348	8.693803868968157e-07	1073.2639591311022
2.05775617882	8.723699525553211e-07	1074.1122604280258
2.07059702693	8.753710866950899e-07	1074.9644833717448
2.08351800474	8.783838376788095e-07	1075.8206338736172
2.09651961227	8.814082540802731e-07	1076.6807178617635
2.10960235268	8.844443846853282e-07	1077.5447412810954
2.12276673224	8.874922784928164e-07	1078.412710093351
2.13601326041	8.905519847155276e-07	1079.2846302771256
2.14934244981	8.936235527811565e-07	1080.1605078279053
2.16275481626	8.967070323332559e-07	1081.0403487580963
2.17625087881	8.998024732322071e-07	1081.9241590970626
2.18983115974	9.029099255561814e-07	1082.811944891152
2.20349618458	9.060294396021183e-07	1083.7037122037345
2.21724648217	9.091610658866956e-07	1084.5994671152312
2.23108258462	9.123048551473148e-07	1085.499215723149
2.24500502737	9.154608583430874e-07	1086.4029641421123
2.25901434921	9.18629126655819e-07	1087.3107185038975
2.27311109227	9.218097114910112e-07	1088.222484957464
2.28729580209	9.250026644788527e-07	1089.138269668988
2.3015690276	9.282080374752301e-07	1090.058078821897
2.31593132115	9.314258825627284e-07	1090.981918616901
2.33038323856	9.346562520516481e-07	1091.9097952720276
2.34492533908	9.37899198481023e-07	1092.8417150226528
2.35955818549	9.411547746196365e-07	1093.7776841215384
2.37428234406	9.444230334670517e-07	1094.717708838862
2.38909838459	9.477040282546425e-07	1095.661795462252
2.40400688046	9.509978124466281e-07	1096.6099502968218
2.41900840859	9.543044397411107e-07	1097.5621796652028
2.43410354954	9.576239640711224e-07	1098.5184899075791
2.44929288747	9.609564396056777e-07	1099.4788873817197
2.46457701018	9.64301920750821e-07	1100.4433784630155
2.47995650916	9.676604621506903e-07	1101.4119695445106
2.49543197957	9.710321186885812e-07	1102.3846670369373
2.5110040203	9.744169454880141e-07	1103.3614773687514
2.52667323396	9.77814997913805e-07	1104.3424069861662
2.54244022694	9.812263315731477e-07	1105.3274623531859
2.5583056094	9.846510023166978e-07	1106.316649951641
2.57426999531	9.880890662396547e-07	1107.3099762812221
2.59033400248	9.91540579682859e-07	1108.3074478595177
2.60649825257	9.95005599233891e-07	1109.3090712220437
2.6227633711	9.984841817281728e-07	1110.3148529222826
2.63912998753	1.0019763842500716e-06	1111.3247995317163
2.65559873522	1.0054822641340177e-06	1112.338917639863
2.67217025149	1.0090018789656225e-06	1113.35721385431
2.68884517765	1.0125352865827963e-06	1114.37969480075
2.70562415899	1.0160825450768805e-06	1115.4063671230167
2.72250784484	1.0196437127937803e-06	1116.437237483121
2.73949688857	1.0232188483351032e-06	1117.4723125612832
2.75659194765	1.026808010559295e-06	1118.5115990559716
2.77379368364	1.0304112585827996e-06	1119.5551036839388
2.79110276221	1.034028651781207e-06	1120.602833180253
2.80851985322	1.0376602497904092e-06	1121.6547942983384
2.82604563067	1.0413061125077677e-06	1122.7109938100084
2.84368077281	1.0449663000932853e-06	1123.7714385055037
2.86142596209	1.0486408729707737e-06	1124.8361351935262
2.87928188523	1.0523298918290383e-06	1125.9050907012754
2.89724923323	1.056033417623064e-06	1126.978311874486
2.9153287014	1.059751511575204e-06	1128.0558055774643
2.93352098941	1.063484235176373e-06	1129.1375786931214
2.95182680127	1.0672316501872523e-06	1130.2236381230157
2.97024684539	1.0709938186394978e-06	1131.313990787381
2.98878183461	1.0747708028369474e-06	1132.408643625173
3.00743248621	1.0785626653568403e-06	1133.5076035940974
3.02619952196	1.0823694690510436e-06	1134.6108776706512
3.04508366811	1.0861912770472791e-06	1135.71847285016
3.06408565545	1.0900281527503507e-06	1136.8303961468123
3.08320621935	1.0938801598433964e-06	1137.946654593699
3.10244609975	1.097747362289126e-06	1139.067255242848
3.1218060412	1.101629824331072e-06	1140.192205165266
3.14128679291	1.1055276104948483e-06	1141.3215114509699
3.16088910877	1.1094407855894131e-06	1142.45518120903
3.18061374737	1.1133694147083385e-06	1143.5932215676019
3.20046147202	1.1173135632310738e-06	1144.7356396739701
3.22043305081	1.1092402864496188e-06	1145.882442694581
3.24052925661	1.1012938026476286e-06	1147.033637815082
3.26075086713	1.0934723960410712e-06	1148.189232240361
3.28109866491	1.0857743745744038e-06	1149.349233194583
3.3015734374	1.0781980695935208e-06	1150.5136479212272
3.32217597694	1.0707418355232046e-06	1151.682483683127
3.34290708083	1.0634040495490222e-06	1152.8557477625086
3.36376755133	1.0561831113036194e-06	1154.0334474610263
3.38475819573	1.0490774425573311e-06	1155.2155900998046
3.40587982634	1.0420854869130598e-06	1156.4021830194733
3.42713326054	1.0352057095053684e-06	1157.5932335802104
3.4485193208	1.028436596703714e-06	1158.7887491617762
3.47003883476	1.0217766558197814e-06	1159.9887371635546
3.49169263519	1.0152244148188442e-06	1161.1932050045916
3.51348156006	1.008778422035118e-06	1162.4021601236352
3.53540645258	1.0024372458910302e-06	1163.6156099791726
3.55746816122	9.961994746203596e-07	1164.83356204947
3.57966753974	9.90063715995205e-07	1166.056023832613
3.60200544724	9.840285970567073e-07	1167.2830028465448
3.62448274816	9.780927638494935e-07	1168.514506629106
3.64710031234	9.722548811597736e-07	1169.7505427380734
3.66985901507	9.657292009020746e-07	1170.9911187512018
3.69275973707	9.66163398570286e-07	1172.236242266261
3.71580336459	9.665168843315493e-07	1173.4859209010774
3.73899078937	9.668329632960863e-07	1174.7401622935724
3.76232290875	9.673769592945974e-07	1175.9989741018057
3.78580062565	9.679213095824433e-07	1177.262364004011
3.80942484864	9.689707118791068e-07	1178.530339698639
3.83319649193	9.70336708476819e-07	1179.8029089043966
3.85711647548	9.717046315291605e-07	1181.0800793602887
3.88118572495	9.730744837540583e-07	1182.3618588256568
3.90540517179	9.74446267873275e-07	1183.64825508022
3.92977575327	9.75819986612419e-07	1184.9392759241173
3.95429841251	9.780098634056395e-07	1186.2349291779465
3.97897409849	9.765880213286345e-07	1187.535222682805
4.00380376615	9.751881402571939e-07	1188.8401643003344
4.02878837636	9.738101301467273e-07	1190.149761912754
4.05392889599	9.724539016155602e-07	1191.4640234229123
4.07922629796	9.71119365941347e-07	1192.7829567543156
4.10468156125	9.698064350575296e-07	1194.1065698511825
4.13029567093	9.685150215497996e-07	1195.4348706784767
4.15606961826	9.672450386525905e-07	1196.7678672219506
4.18200440065	9.659964002455913e-07	1198.1055674881877
4.20810102175	9.64769020850282e-07	1199.4479795046439
4.23436049147	9.635628156264913e-07	1200.7951113196898
4.26078382601	9.623777003689693e-07	1202.146971002652
4.28737204794	9.61213591504e-07	1203.5035666438544
4.31412618617	9.600704060860119e-07	1204.8649063546634
4.34104727608	9.589480617942249e-07	1206.2309982675258
4.36813635947	9.578464769293175e-07	1207.6018505360148
4.39539448465	9.567655704101085e-07	1208.97747133487
4.42282270649	9.557052617702688e-07	1210.357868860042
4.45042208643	9.546654711550409e-07	1211.7430513287325
4.47819369253	9.536461193179943e-07	1213.1330269794394
4.50613859952	9.526471276177932e-07	1214.5278040719986
4.53425788883	9.516684180149793e-07	1215.9273908876269
4.56255264866	9.507099130687938e-07	1217.3317957289648
4.59102397396	9.497715359339973e-07	1218.74102692012
4.61967296655	9.48853210357721e-07	1220.1550928067115
4.64850073512	9.479548606763429e-07	1221.5740017559106
4.67750839526	9.47076411812372e-07	1222.9977621564867
4.70669706954	9.462177892713648e-07	1224.4263824188492
4.73606788752	9.453789191388449e-07	1225.859870975092
4.76562198582	9.445597280772626e-07	1227.2982362790376
4.79536050816	9.437601433229586e-07	1228.74148680628
4.82528460537	9.429800926831523e-07	1230.1896310542281
4.85539543548	9.354887840247352e-07	1231.6426775421523
4.88569416375	9.280597307189e-07	1233.100634811226
4.91618196271	9.20692395991994e-07	1234.5635114245706
4.94686001219	9.13386247829835e-07	1236.0313159673003
4.9777294994	9.061407589346567e-07	1237.5040570465676
5.00879161896	8.989554066824413e-07	1238.9817432916045
5.04004757292	8.918296730806507e-07	1240.464383353771
5.07149857087	8.847630447263413e-07	1241.9519859065965
5.10314582992	8.777550127646649e-07	1243.4445596458283
5.13499057478	8.708050728477508e-07	1244.9421132894734
5.1670340378	8.639127250939595e-07	1246.444655577844
5.19927745904	8.570774740475175e-07	1247.9521952736056
5.23172208626	8.502988286385171e-07	1249.4647411618184
5.26436917505	8.435763021432842e-07	1250.982302049985
5.2972199888	8.369094121451122e-07	1252.5048867680953
5.33027579881	8.302976804953485e-07	1254.032504168672
5.3635378843	8.237406332748458e-07	1255.5651631268172
5.39700753246	8.172378007557614e-07	1257.1028725402557
5.43068603855	8.107887173637083e-07	1258.6456413293863
5.46457470586	8.043929216402552e-07	1260.1934784373193
5.49867484587	7.980499562057639e-07	1261.7463928299333
5.5329877782	7.917593677225732e-07	1263.3043934959092
5.56751483072	7.855207068585177e-07	1264.86748944679
5.60225733959	7.793335282507802e-07	1266.4356897170137
5.63721664931	7.731973904700761e-07	1268.0090033639738
5.67239411276	7.671118559851655e-07	1269.5874394680502
5.70779109127	7.610764911276891e-07	1271.171007132673
5.74340895466	7.550908660573277e-07	1272.7597154843554
5.77924908129	7.491545547272812e-07	1274.3535736727483
5.81531285814	7.432671348500595e-07	1275.9525908706844
5.85160168085	7.365490947824651e-07	1277.5567762742278
5.88811695373	7.298919049526216e-07	1279.1661391027183
5.92486008989	7.232950130412659e-07	1280.7806885988216
5.96183251125	7.167578717526646e-07	1282.4004340285746
5.9990356486	7.102799387688328e-07	1284.0253846814364
6.03647094165	7.038606767041665e-07	1285.655549870331
6.07413983911	6.974995530604969e-07	1287.2909389317003
6.11204379872	6.911960401825484e-07	1288.9315612255482
6.15018428731	6.849496152138056e-07	1290.5774261354923
6.18856278089	6.787597600527839e-07	1292.228543068808
6.22718076465	6.726259613096988e-07	1293.8849214564802
6.26603973307	6.665477102635305e-07	1295.5465707532512
6.30514118994	6.605245028194811e-07	1297.2135004376673
6.34448664845	6.545558394668197e-07	1298.8857200121295
6.38407763121	6.486412252371137e-07	1300.5632390029411
6.42391567035	6.427801696628376e-07	1302.2460669603586
6.46400230756	6.347865432925312e-07	1303.934213458637
6.50433909414	6.269003504264244e-07	1305.6276880960827
6.54492759109	6.19120060381776e-07	1307.3265004951
6.58576936912	6.114441651531008e-07	1309.0306603022432
6.62686600877	6.038711790680057e-07	1310.7401771882628
6.66821910043	5.963996384483247e-07	1312.4550608481577
6.70983024442	5.890281012764622e-07	1314.1753210012241
6.75170105103	5.817551468668803e-07	1315.9009673911046
6.79383314063	5.745793755426313e-07	1317.6320097858388
6.83622814367	5.674994083168782e-07	1319.3684579779133
6.87888770079	5.605138865793027e-07	1321.110321784312
6.92181346287	5.536214717873429e-07	1322.8576110465663
6.96500709108	5.468208451621813e-07	1324.6103356308045
7.00847025697	5.401107073894009e-07	1326.3685054278035
7.0522046425	5.33489778324249e-07	1328.1321303530403
7.09621194016	5.269567967014325e-07	1329.90122034674
7.14049385297	5.205105198493681e-07	1331.6757853739289
7.18505209459	5.14149723408831e-07	1333.455835424484
7.22988838937	5.0787320105592e-07	1335.241380513186
7.27500447243	5.016797642292892e-07	1337.0324306797686
7.3204020897	4.955682418615576e-07	1338.8289959889707
7.36608299802	4.895374801148532e-07	1340.6310865305877
7.41204896519	4.853308751861083e-07	1342.4387124195227
7.45830177004	4.846441347680535e-07	1344.2518837958419
7.50484320249	4.839583662866384e-07	1346.0706108248155
7.55167506365	4.832735683660057e-07	1347.894903696987
7.59879916586	4.825897396322441e-07	1349.7247726282062
7.64621733276	4.819068787133879e-07	1351.5602278596987
7.69393139937	4.812249842394142e-07	1353.4012796581019
7.74194321219	4.805440548422396e-07	1355.2479383155337
7.79025462921	4.798640891557176e-07	1357.100214149632
7.83886752003	4.791850858156376e-07	1358.9581175036133
7.8877837659	4.785070434597173e-07	1360.8216587463244
7.93700525984	4.7559347149079236e-07	1362.6908482722965
7.98653390665	4.7077878553573624e-07	1364.5656965017952
8.03637162304	4.660130257210073e-07	1366.4462138808767
8.08652033767	4.612956930041723e-07	1368.3324108814397
8.13698199123	4.5662629345171143e-07	1370.2242980012786
8.18775853653	4.5200433818652527e-07	1372.1218857641377
8.23885193857	4.474293433359875e-07	1374.025184719764
8.29026417461	4.429008299805338e-07	1375.9342054439614
8.34199723422	4.384183241027757e-07	1377.8489585386455
8.39405311943	4.339813565371445e-07	1379.7694546318953
8.44643384474	4.2958946292005124e-07	1381.6957043780094
8.49914143722	4.252421836405608e-07	1383.62771845756
8.55217793658	4.209390637915768e-07	1385.5655075774455
8.60554539529	4.1667965312152467e-07	1387.5090824709469
8.65924587861	4.124635059865374e-07	1389.4584538977826
8.71328146467	4.082901813031334e-07	1391.4136326441615
8.76765424459	4.0415924250137833e-07	1393.3746295228389
8.82236632254	4.000702574785356e-07	1395.3414553731707
8.8774198158	3.9602279855318854e-07	1397.3141210611702
8.9328168549	3.920164424198392e-07	1399.2926374795622
8.98855958362	3.880507701039753e-07	1401.277015547838
9.04465015914	3.841253669175959e-07	1403.2672662123105
9.10109075211	3.8023982241520127e-07	1405.2634004461727
9.15788354671	3.763937303502309e-07	1407.2654292495506
9.21503074076	3.7258668863195363e-07	1409.273363649559
9.27253454578	3.6881829928280086e-07	1411.2872147003598
9.33039718711	3.650881683961394e-07	1413.3069934832163
9.38862090396	3.6139590609448e-07	1415.33271110655
9.44720794952	3.580039208651611e-07	1417.3643787059968
9.50616059105	3.5464377737835654e-07	1419.4020074444638
9.56548110994	3.513151766749702e-07	1421.4456085121865
9.62517180183	3.480178226032695e-07	1423.4951931267842
