#r [R_J]	sigma [M_J/R_J^2]	T [K]
1.0	3.89913787091507e-07	1000.4520136100001
1.4994994995	5.419681041351564e-07	1032.0216817300955
1.998998999	6.940224211788056e-07	1063.5913498501907
2.4984984985	8.46076738222455e-07	1095.1610179702861
2.997997998	9.981310552661044e-07	1126.7306860903814
3.4974974975	1.0144463562353058e-06	1158.3003542104766
3.996996997	1.0307616572045069e-06	1189.8700223305718
4.4964964965	9.963502237191607e-07	1221.439690450667
4.995995996	9.928500601916755e-07	1253.0093585707625
5.4954954955	9.893498966641902e-07	1284.5790266908577
5.99499499499	9.85849733136705e-07	1316.1486948109532
6.49449449449	9.823495696092198e-07	1347.7183629310484
6.99399399399	9.788494060817346e-07	1379.2880310511437
7.49349349349	9.753492425542494e-07	1410.857699171239
7.99299299299	9.718490790267641e-07	1442.4273672913343
8.49249249249	9.683489154992791e-07	1473.9970354114296
8.99199199199	9.648487519717937e-07	1505.566703531525
9.49149149149	9.613485884443087e-07	1537.1363716516203
9.99099099099	9.578484249168232e-07	1568.7060397717155
10.4904904905	9.543482613893382e-07	1600.275707891811
10.98998999	9.50848097861853e-07	1631.8453760119064
11.4894894895	9.473479343343677e-07	1663.4150441320014
11.988988989	9.438477708068826e-07	1694.9847122520966
12.4884884885	9.403476072793972e-07	1693.516875009758
12.987987988	9.36847443751912e-07	1692.0490377674193
13.4874874875	9.333472802244267e-07	1690.5812005250807
13.986986987	9.298471166969416e-07	1689.1133632827418
14.4864864865	9.263469531694563e-07	1687.6455260404032
14.985985986	9.228467896419711e-07	1686.1776887980645
15.4854854855	9.19346626114486e-07	1684.709851555726
15.984984985	9.158464625870008e-07	1683.2420143133872
16.4844844845	9.123462990595156e-07	1681.7741770710486
16.983983984	9.088461355320303e-07	1680.30633982871
17.4834834835	9.053459720045451e-07	1678.838502586371
17.982982983	9.018458084770599e-07	1677.3706653440324
18.4824824825	8.983456449495747e-07	1675.9028281016938
18.981981982	8.948454814220894e-07	1674.4349908593551
19.4814814815	8.913453178946042e-07	1672.9671536170165
19.980980981	8.87845154367119e-07	1671.4993163746778
20.4804804805	8.843449908396338e-07	1670.031479132339
20.97997998	8.808448273121486e-07	1668.5636418900003
21.4794794795	8.773446637846633e-07	1667.0958046476617
21.978978979	8.738445002571781e-07	1665.627967405323
22.4784784785	8.703443367296929e-07	1664.1601301629844
22.977977978	8.668441732022077e-07	1662.6922929206457
23.4774774775	8.633440096747224e-07	1661.224455678307
23.976976977	8.598438461472372e-07	1659.7566184359682
24.4764764765	8.56343682619752e-07	1658.2887811936296
24.975975976	8.528435190922668e-07	1656.820943951291
25.4754754755	8.493433555647816e-07	1655.3531067089523
25.974974975	8.458431920372963e-07	1653.8852694666134
26.4744744745	8.423430285098111e-07	1652.4174322242748
26.973973974	8.388428649823259e-07	1650.9495949819361
27.4734734735	8.353427014548407e-07	1649.4817577395975
27.972972973	8.318425379273554e-07	1648.0139204972588
28.4724724725	8.283423743998702e-07	1646.5460832549202
28.971971972	8.24842210872385e-07	1645.0782460125815
29.4714714715	8.213420473448998e-07	1643.6104087702427
29.970970971	8.178418838174147e-07	1642.142571527904
30.4704704705	8.143417202899293e-07	1640.6747342855654
30.96996997	8.108415567624441e-07	1639.2068970432267
31.4694694695	8.073413932349589e-07	1637.739059800888
31.968968969	8.038412297074737e-07	1636.2712225585492
32.4684684685	8.003410661799884e-07	1634.8033853162106
32.967967968	7.968409026525032e-07	1633.335548073872
33.4674674675	7.933407391250181e-07	1631.8677108315333
33.966966967	7.898405755975329e-07	1630.3998735891946
34.4664664665	7.863404120700477e-07	1628.932036346856
34.965965966	7.828402485425623e-07	1627.4641991045173
35.4654654655	7.793400850150772e-07	1625.9963618621784
35.964964965	7.758399214875919e-07	1624.5285246198398
36.4644644645	7.723397579601067e-07	1623.0606873775012
36.963963964	7.688395944326216e-07	1621.5928501351625
37.4634634635	7.653394309051363e-07	1620.1250128928239
37.962962963	7.618392673776511e-07	1618.657175650485
38.4624624625	7.583391038501659e-07	1617.1893384081463
38.961961962	7.548389403226807e-07	1615.7215011658077
39.4614614615	7.513387767951955e-07	1614.253663923469
39.960960961	7.478386132677102e-07	1612.7858266811304
40.4604604605	7.44338449740225e-07	1611.3179894387918
40.95995996	7.408382862127399e-07	1609.850152196453
41.4594594595	7.373381226852546e-07	1608.3823149541142
41.958958959	7.338379591577694e-07	1606.9144777117756
42.4584584585	7.303377956302841e-07	1605.446640469437
42.957957958	7.26837632102799e-07	1603.9788032270983
43.4574574575	7.233374685753138e-07	1602.5109659847594
43.956956957	7.198373050478285e-07	1601.0431287424208
44.4564564565	7.163371415203433e-07	1599.5752915000821
44.955955956	7.128369779928581e-07	1598.1074542577435
45.4554554555	7.093368144653729e-07	1596.6396170154048
45.954954955	7.058366509378877e-07	1595.1717797730662
46.4544544545	7.023364874104024e-07	1593.7039425307275
46.953953954	6.988363238829171e-07	1592.2361052883887
47.4534534535	6.95336160355432e-07	1590.76826804605
47.952952953	6.918359968279468e-07	1589.3004308037114
48.4524524525	6.883358333004615e-07	1587.8325935613727
48.951951952	6.848356697729763e-07	1586.364756319034
49.4514514515	6.813355062454911e-07	1584.8969190766954
49.950950951	6.778353427180059e-07	1583.4290818343566
50.4504504505	6.743351791905207e-07	1581.961244592018
50.9499499499	6.708350156630354e-07	1580.4934073496793
51.4494494494	6.673348521355502e-07	1579.0255701073406
51.9489489489	6.63834688608065e-07	1577.557732865002
52.4484484484	6.603345250805798e-07	1576.0898956226633
52.9479479479	6.568343615530945e-07	1574.6220583803247
53.4474474474	6.533341980256093e-07	1573.1542211379858
53.9469469469	6.498340344981241e-07	1571.6863838956472
54.4464464464	6.463338709706389e-07	1570.2185466533085
54.9459459459	6.428337074431537e-07	1568.7507094109699
55.4454454454	6.393335439156684e-07	1567.282872168631
55.9449449449	6.358333803881832e-07	1565.8150349262924
56.4444444444	6.32333216860698e-07	1564.3471976839537
56.9439439439	6.288330533332128e-07	1562.879360441615
57.4434434434	6.253328898057276e-07	1561.4115231992764
57.9429429429	6.218327262782423e-07	1559.9436859569378
58.4424424424	6.183325627507572e-07	1558.4758487145991
58.9419419419	6.148323992232719e-07	1557.0080114722603
59.4414414414	6.113322356957868e-07	1555.5401742299216
59.9409409409	6.078320721683015e-07	1554.072336987583
60.4404404404	6.043319086408162e-07	1552.6044997452443
60.9399399399	6.008317451133311e-07	1551.1366625029057
61.4394394394	5.973315815858458e-07	1549.6688252605668
61.9389389389	5.938314180583606e-07	1548.2009880182281
62.4384384384	5.903312545308754e-07	1546.7331507758895
62.9379379379	5.868310910033902e-07	1545.2653135335509
63.4374374374	5.833309274759051e-07	1543.7974762912122
63.9369369369	5.798307639484198e-07	1542.3296390488736
64.4364364364	5.763306004209345e-07	1540.861801806535
64.9359359359	5.728304368934494e-07	1539.393964564196
65.4354354354	5.693302733659641e-07	1537.9261273218574
65.9349349349	5.658301098384789e-07	1536.4582900795187
66.4344344344	5.623299463109936e-07	1534.99045283718
66.9339339339	5.588297827835085e-07	1533.5226155948415
67.4334334334	5.553296192560232e-07	1532.0547783525026
67.9329329329	5.518294557285381e-07	1530.586941110164
68.4324324324	5.483292922010529e-07	1529.1191038678253
68.9319319319	5.448291286735675e-07	1527.6512666254866
69.4314314314	5.413289651460824e-07	1526.183429383148
69.9309309309	5.378288016185972e-07	1524.7155921408093
70.4304304304	5.34328638091112e-07	1523.2477548984707
70.9299299299	5.308284745636268e-07	1521.7799176561318
71.4294294294	5.273283110361415e-07	1520.3120804137932
71.9289289289	5.238281475086563e-07	1518.8442431714545
72.4284284284	5.203279839811711e-07	1517.376405929116
72.9279279279	5.168278204536859e-07	1515.908568686777
73.4274274274	5.133276569262006e-07	1514.4407314444384
73.9269269269	5.098274933987154e-07	1512.9728942020997
74.4264264264	5.063273298712302e-07	1511.505056959761
74.9259259259	5.02827166343745e-07	1510.0372197174224
75.4254254254	4.993270028162598e-07	1508.5693824750838
75.9249249249	4.958268392887745e-07	1507.1015452327451
76.4244244244	4.923266757612893e-07	1505.6337079904065
76.9239239239	4.888265122338041e-07	1504.1658707480676
77.4234234234	4.853263487063189e-07	1502.698033505729
77.9229229229	4.818261851788336e-07	1501.2301962633903
78.4224224224	4.783260216513484e-07	1499.7623590210517
78.9219219219	4.748258581238632e-07	1498.294521778713
79.4214214214	4.7132569459637803e-07	1496.8266845363742
79.9209209209	4.678255310688928e-07	1495.3588472940355
80.4204204204	4.643253675414076e-07	1493.8910100516969
80.9199199199	4.6082520401392236e-07	1492.4231728093582
81.4194194194	4.5732504048643714e-07	1490.9553355670196
81.9189189189	4.538248769589519e-07	1489.487498324681
82.4184184184	4.5032471343146675e-07	1488.0196610823423
82.9179179179	4.4682454990398147e-07	1486.5518238400034
83.4174174174	4.4332438637649625e-07	1485.0839865976648
83.9169169169	4.3982422284901103e-07	1483.6161493553261
84.4164164164	4.3632405932152586e-07	1482.1483121129875
84.9159159159	4.3282389579404064e-07	1480.6804748706486
85.4154154154	4.2932373226655536e-07	1479.21263762831
85.9149149149	4.258235687390702e-07	1477.7448003859713
86.4144144144	4.223234052115849e-07	1476.2769631436327
86.9139139139	4.1882324168409975e-07	1474.809125901294
87.4134134134	4.153230781566145e-07	1473.3412886589554
87.9129129129	4.118229146291293e-07	1471.8734514166167
88.4124124124	4.083227511016441e-07	1470.4056141742778
88.9119119119	4.048225875741589e-07	1468.9377769319392
89.4114114114	4.0132242404667363e-07	1467.4699396896006
89.9109109109	3.978222605191884e-07	1466.002102447262
90.4104104104	3.943220969917032e-07	1464.5342652049233
90.9099099099	3.90821933464218e-07	1463.0664279625844
91.4094094094	3.873217699367328e-07	1461.5985907202457
91.9089089089	3.838216064092475e-07	1460.130753477907
92.4084084084	3.8032144288176235e-07	1458.6629162355684
92.9079079079	3.768212793542771e-07	1457.1950789932298
93.4074074074	3.7332111582679196e-07	1455.7272417508912
93.9069069069	3.698209522993067e-07	1454.2594045085525
94.4064064064	3.663207887718214e-07	1452.7915672662139
94.9059059059	3.6282062524433624e-07	1451.323730023875
95.4054054054	3.59320461716851e-07	1449.8558927815363
95.9049049049	3.558202981893658e-07	1448.3880555391977
96.4044044044	3.523201346618806e-07	1446.920218296859
96.9039039039	3.4881997113439535e-07	1445.4523810545202
97.4034034034	3.453198076069102e-07	1443.9845438121815
97.9029029029	3.4181964407942496e-07	1442.5167065698429
98.4024024024	3.3831948055193974e-07	1441.0488693275042
98.9019019019	3.348193170244545e-07	1439.5810320851656
99.4014014014	3.3131915349696924e-07	1438.113194842827
99.9009009009	3.278189899694841e-07	1436.6453576004883
100.4004004	3.2431882644199885e-07	1435.1775203581496
100.8998999	3.208186629145136e-07	1433.7096831158108
101.399399399	3.173184993870284e-07	1432.2418458734721
101.898898899	3.138183358595432e-07	1430.7740086311335
102.398398398	3.10318172332058e-07	1429.3061713887948
102.897897898	3.0681800880457274e-07	1427.838334146456
103.397397397	3.033178452770875e-07	1426.3704969041173
103.896896897	2.9981768174960235e-07	1424.9026596617787
104.396396396	2.963175182221171e-07	1423.43482241944
104.895895896	2.928173546946319e-07	1421.9669851771014
105.395395395	2.893171911671467e-07	1420.4991479347627
105.894894895	2.858170276396614e-07	1419.031310692424
106.394394394	2.8231686411217624e-07	1417.5634734500854
106.893893894	2.7881670058469107e-07	1416.0956362077466
107.393393393	2.753165370572058e-07	1414.627798965408
107.892892893	2.7181637352972057e-07	1413.1599617230693
108.392392392	2.6831621000223535e-07	1411.6921244807306
108.891891892	2.648160464747502e-07	1410.2242872383918
109.391391391	2.613158829472649e-07	1408.756449996053
109.890890891	2.578157194197797e-07	1407.2886127537145
110.39039039	2.5431555589229446e-07	1405.8207755113758
110.88988989	2.508153923648093e-07	1404.3529382690372
111.389389389	2.473152288373241e-07	1402.8851010266985
111.888888889	2.438150653098388e-07	1401.4172637843599
112.388388388	2.4031490178235357e-07	1399.949426542021
112.887887888	2.368147382548684e-07	1398.4815892996824
113.387387387	2.3331457472738323e-07	1397.0137520573437
113.886886887	2.2981441119989795e-07	1395.545914815005
114.386386386	2.2631424767241273e-07	1394.0780775726664
114.885885886	2.228140841449275e-07	1392.6102403303275
115.385385385	2.1931392061744234e-07	1391.142403087989
115.884884885	2.1581375708995706e-07	1389.6745658456502
116.384384384	2.123135935624719e-07	1388.2067286033116
116.883883884	2.0881343003498662e-07	1386.738891360973
117.383383383	2.053132665075014e-07	1385.2710541186343
117.882882883	2.0181310298001628e-07	1383.8032168762957
118.382382382	1.9831293945253095e-07	1382.3353796339568
118.881881882	1.9481277592504578e-07	1380.8675423916181
119.381381381	1.9131261239756056e-07	1379.3997051492795
119.880880881	1.878124488700754e-07	1377.9318679069409
120.38038038	1.8431228534259012e-07	1376.464030664602
120.87987988	1.808121218151049e-07	1374.9961934222633
121.379379379	1.7731195828761967e-07	1373.5283561799247
121.878878879	1.738117947601345e-07	1372.060518937586
122.378378378	1.7031163123264928e-07	1370.5926816952474
122.877877878	1.6681146770516406e-07	1369.1248444529087
123.377377377	1.6331130417767878e-07	1367.65700721057
123.876876877	1.5981114065019356e-07	1366.1891699682312
124.376376376	1.5631097712270844e-07	1364.7213327258926
124.875875876	1.5281081359522312e-07	1363.253495483554
125.375375375	1.4931065006773795e-07	1361.7856582412153
125.874874875	1.4581048654025272e-07	1360.3178209988766
126.374374374	1.423103230127675e-07	1358.8499837565378
126.873873874	1.3881015948528228e-07	1357.3821465141991
127.373373373	1.3530999595779706e-07	1355.9143092718605
127.872872873	1.3180983243031183e-07	1354.4464720295218
128.372372372	1.283096689028266e-07	1352.9786347871832
128.871871872	1.2480950537534144e-07	1351.5107975448445
129.371371371	1.2130934184785627e-07	1350.042960302506
129.870870871	1.17809178320371e-07	1348.575123060167
130.37037037	1.1430901479288572e-07	1347.1072858178284
130.86986987	1.1080885126540055e-07	1345.6394485754897
131.369369369	1.0730868773791528e-07	1344.171611333151
131.868868869	1.0380852421043011e-07	1342.7037740908122
132.368368368	1.0030836068294489e-07	1341.2359368484736
132.867867868	9.680819715545966e-08	1339.768099606135
133.367367367	9.330803362797455e-08	1338.3002623637963
133.866866867	8.980787010048922e-08	1336.8324251214576
134.366366366	8.630770657300405e-08	1335.364587879119
134.865865866	8.280754304551872e-08	1333.8967506367803
135.365365365	7.930737951803355e-08	1332.4289133944417
135.864864865	7.580721599054838e-08	1330.9610761521028
136.364364364	7.230705246306316e-08	1329.4932389097642
136.863863864	6.880688893557789e-08	1328.0254016674255
137.363363363	6.530672540809272e-08	1326.5575644250869
137.862862863	6.18065618806075e-08	1325.089727182748
138.362362362	5.830639835312227e-08	1323.6218899404093
138.861861862	5.48062348256371e-08	1322.1540526980707
139.361361361	5.130607129815183e-08	1320.686215455732
139.860860861	4.7805907770666606e-08	1319.2183782133934
140.36036036	4.430574424318133e-08	1317.7505409710548
140.85985986	4.080558071569616e-08	1316.2827037287161
141.359359359	3.730541718821099e-08	1314.8148664863775
141.858858859	3.380525366072577e-08	1313.3470292440386
142.358358358	3.03050901332406e-08	1311.8791920017
142.857857858	2.680492660575543e-08	1310.4113547593613
143.357357357	2.330476307827005e-08	1308.9435175170227
143.856856857	1.98045995507848e-08	1307.4756802746838
144.356356356	1.8006878836560713e-08	1306.0078430323451
144.855855856	1.798303178168685e-08	1304.5400057900065
145.355355355	1.7959184726812987e-08	1303.0721685476678
145.854854855	1.793533767193912e-08	1301.6043313053292
146.354354354	1.7911490617065254e-08	1300.1364940629906
146.853853854	1.788764356219139e-08	1298.668656820652
147.353353353	1.7863796507317528e-08	1297.2008195783133
147.852852853	1.783994945244366e-08	1295.7329823359744
148.352352352	1.7816102397569795e-08	1294.2651450936357
148.851851852	1.7792255342695928e-08	1292.797307851297
149.351351351	1.7768408287822065e-08	1291.3294706089584
149.850850851	1.7744561232948202e-08	1289.8616333666198
150.35035035	1.7720714178074336e-08	1288.393796124281
150.84984985	1.769686712320047e-08	1286.9259588819423
151.349349349	1.7673020068326606e-08	1285.4581216396036
151.848848849	1.7649173013452743e-08	1283.990284397265
152.348348348	1.7625325958578877e-08	1282.5224471549263
152.847847848	1.760147890370501e-08	1281.0546099125877
153.347347347	1.7577631848831147e-08	1279.5867726702488
153.846846847	1.7553784793957284e-08	1278.1189354279102
154.346346346	1.7529937739083418e-08	1276.6510981855715
154.845845846	1.750609068420955e-08	1275.1832609432329
155.345345345	1.7482243629335685e-08	1273.7154237008942
155.844844845	1.745839657446182e-08	1272.2475864585554
156.344344344	1.743454951958796e-08	1270.7797492162167
156.843843844	1.7410702464714092e-08	1269.311911973878
157.343343343	1.738596901896236e-08	1267.8440747315394
157.842842843	1.736034430070262e-08	1266.3762374892008
158.342342342	1.7334719582442886e-08	1264.9084002468621
158.841841842	1.7309094864183147e-08	1263.4405630045235
159.341341341	1.728347014592341e-08	1261.9727257621848
159.840840841	1.7257845427663674e-08	1260.504888519846
160.34034034	1.7232220709403936e-08	1259.0370512775073
160.83983984	1.7206595991144198e-08	1257.5692140351687
161.339339339	1.7180971272884463e-08	1256.10137679283
161.838838839	1.7155346554624728e-08	1254.6335395504912
162.338338338	1.7129721836364986e-08	1253.1657023081525
162.837837838	1.710409711810525e-08	1251.6978650658139
163.337337337	1.7078472399845517e-08	1250.2300278234752
163.836836837	1.7052847681585778e-08	1248.7621905811366
164.336336336	1.702722296332604e-08	1247.294353338798
164.835835836	1.7001598245066302e-08	1245.8265160964593
165.335335335	1.6975973526806564e-08	1244.3586788541204
165.834834835	1.695034880854683e-08	1242.8908416117818
166.334334334	1.692472409028709e-08	1241.423004369443
166.833833834	1.6899099372027352e-08	1239.9551671271045
167.333333333	1.6873474653767617e-08	1238.4873298847658
167.832832833	1.6847849935507882e-08	1237.019492642427
168.332332332	1.6822225217248144e-08	1235.5516554000883
168.831831832	1.6796600498988406e-08	1234.0838181577496
169.331331331	1.677097578072867e-08	1232.615980915411
169.830830831	1.6745351062468933e-08	1231.1481436730724
170.33033033	1.6719726344209195e-08	1229.6803064307337
170.82982983	1.669410162594946e-08	1228.212469188395
171.329329329	1.666847690768972e-08	1226.7446319460562
171.828828829	1.6642852189429983e-08	1225.2767947037175
172.328328328	1.6617227471170248e-08	1223.808957461379
172.827827828	1.659160275291051e-08	1222.3411202190402
173.327327327	1.6565978034650772e-08	1220.8732829767014
173.826826827	1.6540353316391037e-08	1219.4054457343627
174.326326326	1.6514728598131302e-08	1217.937608492024
174.825825826	1.648910387987156e-08	1216.4697712496854
175.325325325	1.6463479161611825e-08	1215.0019340073468
175.824824825	1.643785444335209e-08	1213.5340967650081
176.324324324	1.6412229725092352e-08	1212.0662595226695
176.823823824	1.6386605006832614e-08	1210.5984222803309
177.323323323	1.636098028857288e-08	1209.130585037992
177.822822823	1.633535557031314e-08	1207.6627477956533
178.322322322	1.6309730852053403e-08	1206.1949105533147
178.821821822	1.6284106133793668e-08	1204.727073310976
179.321321321	1.6258481415533926e-08	1203.2592360686374
179.820820821	1.623285669727419e-08	1201.7913988262985
180.32032032	1.6207231979014456e-08	1200.3235615839599
180.81981982	1.6181607260754718e-08	1198.8557243416212
181.319319319	1.615598254249498e-08	1197.3878870992826
181.818818819	1.6130357824235245e-08	1195.920049856944
182.318318318	1.6104733105975507e-08	1194.4522126146053
