#r [R_J]	sigma [M_J/R_J^2]	T [K]
1.0	3.899141872952637e-07	1000.4520136099998
1.01253200001	3.965407809567726e-07	1001.318774544188
1.02522105104	4.03281345122923e-07	1002.1989416561867
1.03806912126	4.10137862660899e-07	1003.0925484889262
1.0510782035	4.17112351312477e-07	1003.9996288029756
1.06425031555	4.242068643135767e-07	1004.9202165773206
1.07758750052	4.3142349102491573e-07	1005.854346010145
1.09109182708	4.3876435757397363e-07	1006.8020515196123
1.10476538987	4.462316275084637e-07	1007.7633677446544
1.11861030974	4.5382750246152837e-07	1008.7383295457657
1.13262873415	4.61554222828864e-07	1009.7269720057968
1.14682283746	4.694140684579949e-07	1010.7293304307549
1.16119482127	4.774093593499119e-07	1011.7454403506099
1.17574691478	4.85542456373302e-07	1012.7753375201007
1.19048137513	4.938157619915977e-07	1013.8190579195459
1.20540048773	5.022317210030773e-07	1014.8766377556651
1.22050656665	5.107928212942473e-07	1015.9481134623945
1.23580195495	5.195015946067559e-07	1017.0335217017132
1.25128902506	5.28360617318076e-07	1018.1328993644736
1.26697017914	5.373725112362107e-07	1019.2462835712299
1.28284784943	5.465399444086695e-07	1020.3737116730806
1.29892449869	5.558656319459812e-07	1021.5152212525047
1.31520262052	5.653523368600034e-07	1022.6708501242089
1.33168473977	5.750028709172906e-07	1023.8406363359795
1.34837341294	5.848200955078053e-07	1025.0246181695322
1.36527122856	5.948069225292403e-07	1026.2228341413725
1.38238080761	6.049663152872406e-07	1027.4353230036586
1.39970480391	6.153012894118069e-07	1028.662123745066
1.41724590452	6.258149137901813e-07	1029.9032755916594
1.43500683021	6.365103115165092e-07	1031.1588180077695
1.45299033582	6.473906608585847e-07	1032.4287906968696
1.47119921072	6.584591962419799e-07	1033.713233602461
1.48963627924	6.697192092518892e-07	1035.0121869089633
1.5083044011	6.811740496529935e-07	1036.3256910426035
1.52720647187	6.928271264276878e-07	1037.6537866723152
1.54634542339	7.046819088329809e-07	1038.996514710641
1.56572422425	7.16741927476435e-07	1040.353916314636
1.58534588024	7.290107754114678e-07	1041.726032886781
1.60521343482	7.414921092523835e-07	1043.112906075895
1.6253299696	7.50322281208954e-07	1044.5145777780563
1.64569860479	7.592643172046303e-07	1045.9310901375256
1.66632249972	7.683197119796257e-07	1047.3624855476776
1.6872048533	7.774899810909042e-07	1048.808806651928
1.70834890454	7.86776661210787e-07	1050.2700963446766
1.72975793302	7.921428970122765e-07	1051.7463977722482
1.75143525946	7.975503053852802e-07	1053.2377543338382
1.77338424614	8.029992283097605e-07	1054.7442096824645
1.79560829753	8.084900107384414e-07	1056.2658077259264
1.81811086073	8.140230006232743e-07	1057.8025926277608
1.84089542605	8.19598548942133e-07	1059.3546088082114
1.86396552755	8.252170097257553e-07	1060.921900945199
1.88732474355	8.308787400849285e-07	1062.504513975294
1.91097669726	8.365841002379124e-07	1064.1024930946971
1.93492505724	8.423334535381157e-07	1065.7158837602271
1.95917353808	8.481271665020229e-07	1067.3447316903048
1.98372590087	8.539656088373629e-07	1068.9890828659518
2.00858595388	8.598491534715484e-07	1070.6489835317866
2.03375755307	8.657781765803508e-07	1072.3244801970295
2.05924460274	8.717530576168492e-07	1074.0156196365128
2.08505105612	8.777741793406376e-07	1075.7224488916916
2.11118091597	8.838419278472871e-07	1077.445015271664
2.13763823523	8.899566925980824e-07	1079.1833663541956
2.16442711761	8.961188664500255e-07	1080.9375499867454
2.19155171827	9.023288456861009e-07	1082.7076142875012
2.21901624442	9.085870300458283e-07	1084.4936076464169
2.24682495601	9.148938227560753e-07	1086.2955787262574
2.27498216638	9.212496305621573e-07	1088.113576463645
2.30349224291	9.276548637592216e-07	1089.9476500701157
2.33235960772	9.341099362238974e-07	1091.7978490331752
2.36158873834	9.40615265446249e-07	1093.6642231173635
2.39118416843	9.471712725620107e-07	1095.5468223653254
2.42115048845	9.537783823851063e-07	1097.4456970988817
2.45149234639	9.604370234404742e-07	1099.36089792011
2.48221444849	9.671476279971747e-07	1101.29247571243
2.51332155998	9.739106321018059e-07	1103.240481641691
2.5448185058	9.807264756122197e-07	1105.2049671572681
2.57671017133	9.875956022315348e-07	1107.1859839931622
2.60900150322	9.945184595424629e-07	1109.183584169105
2.64169751008	1.0014954990419497e-06	1111.1978199916687
2.6748032633	1.0085271761761084e-06	1113.2287440553853
2.70832389782	1.0156139503754942e-06	1115.2764092438642
2.74226461293	1.0227562850906754e-06	1117.3408687309202
2.77663067308	1.029954647828138e-06	1119.4221759817076
2.8114274087	1.0372095101865113e-06	1121.5203847538544
2.84666021701	1.0445213478931164e-06	1123.635549098607
2.88233456287	1.0518906408408475e-06	1125.7677233619795
2.91845597964	1.05931787312539e-06	1127.916962185906
2.95503007	1.0668035330827635e-06	1130.0833205094007
2.99206250686	1.0743481133272151e-06	1132.2668535697212
3.02955903422	1.08195211078945e-06	1134.4676169035445
3.06752546807	1.0896160267552004e-06	1136.685666348134
3.10596769726	1.097340366904157e-06	1138.9210580425306
3.14489168447	1.1051256413492365e-06	1141.1738484287332
3.18430346708	1.1129723646762145e-06	1143.4440942528954
3.22420915816	1.1012700114298566e-06	1145.7318525665223
3.26461494735	1.089862384171257e-06	1148.037180727675
3.3055271019	1.0787435219954193e-06	1150.360136402182
3.34695196757	1.0679075897545993e-06	1152.7007775648533
3.38889596966	1.0573488754282094e-06	1155.0591625007023
3.43136561398	1.0470617875478254e-06	1157.4353498061746
3.47436748788	1.0370408526761364e-06	1159.829398390379
3.51790826127	1.0272807129387186e-06	1162.2413674763277
3.56199468763	1.0177761236075324e-06	1164.6713166021818
3.60663360508	1.008521950735026e-06	1167.1193056225002
3.65183193745	9.995131688378361e-07	1169.5853947094972
3.69759669532	9.893037870022303e-07	1172.0696443543068
3.74393497714	9.79322046618626e-07	1174.5721153682482
3.79085397031	9.695631975309452e-07	1177.0928688841022
3.83836095229	9.728669393323387e-07	1179.6319663573925
3.88646329178	9.702574760799753e-07	1182.1894695676701
3.93516844979	9.677209269065175e-07	1184.7654406198074
3.98448398083	9.65256739245111e-07	1187.3599419452983
4.03441753411	9.628643679271067e-07	1189.9730363035608
4.08497685469	9.605432751086145e-07	1192.604786783246
4.13616978466	9.58292930197882e-07	1195.2552568035655
4.18800426444	9.56112809783534e-07	1197.9245101156002
4.24048833392	9.540023975636132e-07	1200.612610803641
4.29363013375	9.5196118427546e-07	1203.319623286522
4.34743790662	9.499886676263813e-07	1206.0456123189597
4.40191999851	9.480843522251447e-07	1208.7906429929048
4.45708485997	9.462477495142407e-07	1211.5547807388962
4.51294104747	9.444783777029476e-07	1214.3380913274216
4.56949722471	9.427757617011533e-07	1217.1406408702846
4.62676216397	9.411394330539679e-07	1219.9624958219817
4.68474474745	9.395689298770711e-07	1222.8037229810784
4.74345396866	9.380637967928305e-07	1225.6643894916
4.80289893384	9.366235848671431e-07	1228.5445628444227
4.86308886332	9.221709851269401e-07	1231.4443108786732
4.924033093	9.079553455913906e-07	1234.3637017831386
4.98574107576	8.939725957549725e-07	1237.3028040976749
5.04822238296	8.802187373540584e-07	1240.2616867146294
5.11148670591	8.666898430571243e-07	1243.2404188802677
5.17554385735	8.533820551790011e-07	1246.239070196204
5.24040377301	8.402915844187669e-07	1249.2577106208428
5.30607651314	8.274147086208105e-07	1252.2964104708253
5.37257226405	8.147477715586612e-07	1255.3552404224815
5.43990133971	8.022871817411372e-07	1258.4342715132902
5.50807418334	7.900294112404336e-07	1261.533575143349
5.57710136905	7.779709945417046e-07	1264.653223076839
5.64699360346	7.661085274137759e-07	1267.7932874435194
5.71776172734	7.544386658005714e-07	1270.9538407402003
5.78941671736	7.429581247328915e-07	1274.134955832247
5.86196968771	7.298204765003066e-07	1277.336705955076
5.93543189189	7.169161506209306e-07	1280.5591647156668
6.00981472441	7.042409857530621e-07	1283.8024060940738
6.08512972258	6.917908950775476e-07	1287.0665044449502
6.16138856832	6.795618649579632e-07	1290.3515344990785
6.23860308991	6.675499536249744e-07	1293.6575713649045
6.31678526388	6.557512898844336e-07	1296.9846905300824
6.39594721686	6.441620718487909e-07	1300.332967863026
6.47610122744	6.322730532389161e-07	1303.7024796144651
6.55725972808	6.206057655866897e-07	1307.0933024190122
6.63943530704	6.09156032301063e-07	1310.5055132967345
6.72264071037	5.979197561960618e-07	1313.9391896547336
6.80688884381	5.868929179682391e-07	1317.3944092887311
6.89219277485	5.760715747035506e-07	1320.8712503846673
6.97856573477	5.654518584130709e-07	1324.3697915202972
7.06602112061	5.550299745969991e-07	1327.8901116668046
7.15457249736	5.448022008364014e-07	1331.4322901904168
7.24423359995	5.347648854121427e-07	1334.9964068540285
7.33501833549	5.249144459504915e-07	1338.5825418188335
7.42694078533	5.152473680948707e-07	1342.1907756459657
7.52001520732	5.057602042032497e-07	1345.8211892981444
7.61425603796	4.964495720706765e-07	1349.4738641413255
7.70967789469	4.873121536764637e-07	1353.1488819463739
7.80629557813	4.783446939555497e-07	1356.846324890719
7.90412407438	4.695439995935653e-07	1360.5662755600442
8.00317855735	4.6090693784513794e-07	1364.3088169499663
8.1034743911	4.524304353749951e-07	1368.0740324677288
8.20502713223	4.4411147712141596e-07	1371.8620059339048
8.30785253233	4.35947105181594e-07	1375.6728215841035
8.41196654033	4.2793441771849514e-07	1379.5065640706878
8.51738530508	4.200705678887853e-07	1383.3633184644991
8.6241251778	4.123527627914238e-07	1387.2431702565882
8.7322027146	4.0477826243651525e-07	1391.146205359957
8.84163467909	3.9734437873403503e-07	1395.072510111307
8.95243804497	3.900484745020372e-07	1399.0221712727948
9.06462999862	3.8288796249396497e-07	1402.9952760337965
9.17822794184	3.758603044446995e-07	1406.9919120126815
9.29324949449	3.689630101349787e-07	1411.012167258593
9.40971249723	3.621936364738317e-07	1415.0561302532358
9.52763501432	3.561872431964943e-07	1419.123889912675
9.6470353364	3.5028540505621795e-07	1423.2155355891405
9.76793198332	3.457842404908271e-07	1427.3311570728408
9.89034370702	3.413409166503328e-07	1431.4708445937863
10.0142894944	3.369546902614065e-07	1435.6346888236194
10.1397885705	3.326248276021706e-07	1439.8227808774477
10.2668604009	3.283506043794559e-07	1444.0352123157058
10.3955246955	3.2413130560763534e-07	1448.2720751459917
10.5258014111	3.1996622548901593e-07	1452.5334618249499
10.6577107545	3.158546672957696e-07	1456.8194652601287
10.7912731858	3.117959432533753e-07	1461.1301788118722
10.9265094214	3.077893744255661e-07	1465.4656962952051
11.0634404376	3.0383429060074905e-07	1469.8261119817341
11.2020874732	2.999300301798904e-07	1474.211520601553
11.3424720335	2.960759400658344e-07	1478.6220173451616
11.4846158932	2.9227137555405094e-07	1483.057697865387
11.6285410996	2.885157002247844e-07	1487.5186582793206
11.7742699768	2.8480828583658807e-07	1492.0049951702604
11.9218251282	2.8114851222122807e-07	1496.51680558966
12.0712294408	2.7753576717993567e-07	1486.8439104922577
12.2225060883	2.7396944638099633e-07	1477.238716928579
12.3756785347	2.70448953258652e-07	1467.700735136652
12.5307705382	2.669736989133023e-07	1458.2294789426498
12.6878061547	2.6354310201299155e-07	1448.824465734484
12.8468097415	2.601565886961569e-07	1439.4852164355814
13.0078059613	2.568135924756323e-07	1430.2112554788646
13.1708197857	2.5351355414387884e-07	1421.0021107809193
13.3358764994	2.502559216794398e-07	1411.8573137163517
13.5030017038	2.470401501545929e-07	1402.7763990923372
13.6722213213	2.4386570164419253e-07	1393.7589051233558
13.843561599	2.4073204513568173e-07	1384.8043734061134
14.0170491131	2.3763865644026006e-07	1375.9123488946477
14.1927107727	2.3458501810519553e-07	1367.0823798756207
14.3705738242	2.3157061932726078e-07	1358.3140179437883
14.5506658555	2.2859495586728316e-07	1349.6068179776544
14.7330148001	2.2565752996579195e-07	1340.9603381153047
14.9176489417	2.2275785025975007e-07	1332.3741397304154
15.1045969184	2.1989543170035776e-07	1323.8477874084429
15.2938877271	2.1706979547190754e-07	1315.380848922986
15.4855507282	2.1428046891168775e-07	1306.972895212324
15.67961565	2.1152698543091076e-07	1298.6235003561262
15.8761125935	2.0880888443666163e-07	1290.3322415523364
16.0750720367	2.0612571125484457e-07	1282.098699094223
16.2765248396	2.0347701705412498e-07	1273.9224563476025
16.480502249	2.008623587708445e-07	1265.8030997282294
16.6870359033	1.9828129903490443e-07	1257.7402186793513
16.8961578374	1.9573340609659912e-07	1249.7334056494326
17.1079004876	1.932182537543902e-07	1241.7822560700404
17.3222966966	1.9073542128361039e-07	1233.8863683338927
17.539379719	1.882844933660817e-07	1226.0453437730703
17.7591832257	1.8586506002063842e-07	1218.2587866373897
17.9817413101	1.8347671653454454e-07	1210.526304072932
18.2070884923	1.8111906339578963e-07	1202.8475061007334
18.4352597255	1.7879170622625867e-07	1195.2220055956338
18.6662904005	1.764942557157559e-07	1187.6494182652757
18.900216352	1.742263275568813e-07	1180.1293626292643
19.1370738634	1.7198754238073977e-07	1172.6614599984778
19.3768996733	1.6977752569348096e-07	1165.2453344545304
19.6197309801	1.675959078136494e-07	1157.8806128293888
19.8656054489	1.6544232381034391e-07	1150.566924685135
20.1145612166	1.633164134421706e-07	1143.3039022938829
20.3666368979	1.6121782109697854e-07	1136.0911806178397
20.6218715917	1.5914619573237339e-07	1128.928397289516
20.8803048867	1.5710119081699136e-07	1121.81519259208
21.1419768677	1.5508246427253076e-07	1114.7512094398598
21.406928122	1.5308967841652872e-07	1107.7360933589855
21.6751997454	1.5112249990587003e-07	1100.7694924681755
21.9468333488	1.4918059968102605e-07	1093.8510574596671
22.2218710645	1.4726365291100685e-07	1086.9804415802832
22.5003555528	1.4537133893902313e-07	1080.1573006126416
22.7823300088	1.4350334122884488e-07	1073.3812928565017
23.0678381687	1.4165934731185024e-07	1066.6520791102494
23.3569243168	1.3983904873475402e-07	1059.9693226525171
23.6496332925	1.3804214100800866e-07	1053.3326892239418
23.9460104972	1.3626832355486894e-07	1046.7418470090543
24.2461019009	1.345172996611086e-07	1040.1964666183042
24.5499540501	1.3278877642538645e-07	1033.6962210702177
24.8576140745	1.310824647102477e-07	1027.2407857736844
25.1691296943	1.2939807909375689e-07	1020.8298385103775
25.4845492278	1.2773533782175087e-07	1014.4630594173024
25.803921599	1.260939627607058e-07	1008.1401309694733
26.1272963447	1.2447367935121126e-07	1001.8607379627181
26.4547236227	1.228742165620392e-07	995.6245674966118
26.7862542193	1.2129530684480657e-07	989.4313089575314
27.1219395574	1.197366860892178e-07	983.2806540018394
27.4618317042	1.181980935788844e-07	977.1722965391918
27.8059833794	1.1667927194771116e-07	971.1059327159646
28.1544479633	1.1517996713684291e-07	965.0812608988069
28.5072795054	1.1369992835216543e-07	959.0979816583144
28.8645327324	1.1223890802235098e-07	953.1557977528207
29.2262630569	1.1079666175744515e-07	947.2544141123117
29.5925265857	1.0937294830798317e-07	941.393537822455
29.9633801292	1.0796752952463385e-07	935.5728781087502
30.3388812092	1.0658017031836133e-07	929.7921463207944
30.7190880688	1.0521063862109857e-07	924.0510559166629
31.1040596807	1.0385870534692653e-07	918.3493224474072
31.4938557569	1.0252414435375163e-07	912.6866635416654
31.8885367575	1.0120673240547697e-07	907.0627988903868
32.2881639004	9.990624913465819e-08	901.4774502316689
32.6927991707	9.862247700564026e-08	895.9303413357065
33.1025053302	9.735520127816732e-08	890.4211979898514
33.5173459272	9.610420997146045e-08	884.9497479837815
33.9373853067	9.486929382875783e-08	879.515721094782
34.3626886196	9.365024628230858e-08	874.1188490731306
34.7933218337	9.244686341881876e-08	868.7588656275941
35.2293517432	9.125894394533955e-08	863.4355064110316
35.6708459796	9.008628915559531e-08	858.148509006101
36.1178730217	8.892870289674316e-08	852.8976129110736
36.5705022067	8.77859915365601e-08	847.6825595257529
37.0288037407	8.665796393105235e-08	842.5030921374962
37.4928487094	8.554443139247977e-08	837.3589559073388
37.9627090898	8.444520765779294e-08	832.2498978562234
38.4384577604	8.336010885747342e-08	827.1756668513265
38.9201685134	8.228895348477688e-08	822.1360135924899
39.4079160655	8.123156236537001e-08	817.1306905987495
39.90177607	8.018775862735768e-08	812.1594521949642
40.401825128	7.915736767169626e-08	807.2220544985428
40.9081408009	7.814021714298565e-08	802.3182554062706
41.4208016218	7.713613690063849e-08	797.4478145812305
41.939887108	7.614495899041772e-08	792.6104934398219
42.4654777736	7.516651761634173e-08	787.8060551388754
42.9976551414	7.420064911294977e-08	783.034264562862
43.536501756	7.324719191792365e-08	778.2948883111959
44.0821011964	7.230598654506161e-08	773.5876946856336
44.634538089	7.137687555759912e-08	768.9124536777613
45.1938981207	7.045970354187305e-08	764.2689369565788
45.7602680523	6.95543170813235e-08	759.6569178561734
46.3337357319	6.866056473083097e-08	755.0761713634831
46.9143901085	6.777829699138158e-08	750.526474106152
47.5023212457	6.690736628505926e-08	746.007604340475
48.097620336	6.604762693035926e-08	741.51934193943
48.7003797145	6.519893511781756e-08	737.0614683807992
49.3106928734	6.436114888595523e-08	732.6337667353787
49.928654477	6.35341280975305e-08	728.2360216552725
50.5543603753	6.271773441609679e-08	723.8680193622765
51.1879076199	6.191183128286203e-08	719.5295476363441
51.8293944787	6.111628389384451e-08	715.2203958041393
52.4789204507	6.033095917732335e-08	710.9403547276743
53.1365862822	5.955572577157808e-08	706.6892167930284
53.802493982	5.879045400291448e-08	702.4667758991532
54.476746837	5.803501586397266e-08	698.2728274467579
55.1594494288	5.728928499231434e-08	694.1071683272776
55.8507076495	5.655313664928454e-08	689.969596911922
56.5506287183	5.5826447699145726e-08	685.8599130408073
57.2593211978	5.5109096588479566e-08	681.7779180121635
57.9768950116	5.440096332585334e-08	677.7234145716259
58.7034614604	5.370192946174816e-08	673.6962069016033
59.4391332399	5.301187806874463e-08	669.6961006107248
60.1840244581	5.23306937219632e-08	665.7229027233635
60.9382506531	5.165826247975624e-08	661.77642166924
61.7019288108	5.0994471864647594e-08	657.856467273099
62.4751773832	5.0339210844518e-08	653.9628507444648
63.2581163067	4.9692369814031016e-08	650.0953846674711
64.0508670208	4.9053840576298975e-08	646.2538829907651
64.8535524869	4.8423516324783404e-08	642.4381610174878
65.6662972072	4.7801291625429146e-08	638.6480353953264
66.4892272443	4.7187062399026777e-08	634.8833241066402
67.3224702407	4.658072590380277e-08	631.143846458661
68.1661554383	4.5982180718232984e-08	627.4294230737628
69.0204136989	4.539132672407684e-08	623.7398758798055
69.8853775239	4.4808065089629834e-08	620.0750281005496
70.7611810756	4.42322982531909e-08	616.4347042461396
71.6479601975	4.366392990674252e-08	612.8187301036594
72.5458524353	4.3102864979840774e-08	609.2269327277568
73.4549970586	4.254900962371151e-08	605.6591404313382
74.3755350824	4.2002271195552046e-08	602.1151827763264
75.3076092886	4.146255824303358e-08	598.5948905644959
76.2513642489	4.092978048900359e-08	595.0980958283669
77.2069463463	4.0403848816384185e-08	591.6246318221723
78.1745037986	3.988467525326488e-08	588.1743330128866
79.1541866808	3.9372172958186816e-08	584.7470350713246
80.146146949	3.886625620561597e-08	581.3425748633039
81.1505384632	3.8366840371603416e-08	577.9607904408749
82.1675170119	3.787384191962934e-08	574.6015210336085
83.1972403358	3.738717838662942e-08	571.2646070399572
84.2398681524	3.690676836920057e-08	567.9498900186745
85.2955621808	3.6432531509983826e-08	564.6572126802974
86.3644861668	3.5964388484222566e-08	561.3864188786931
87.4468059081	3.550226098649299e-08	558.1373536026686
88.5426892805	3.504607171760581e-08	554.9098629676396
89.6523062633	3.4595744371675296e-08	551.7037942073631
90.7758289662	3.4151203623355495e-08	548.5189956657302
91.9134316555	3.3712375115239674e-08	545.3553167886181
93.0652907818	3.327918544542227e-08	542.2126081158053
